#K-Path(1/A) Energy-Level(eV)
# NKPTS & NBANDS: 400   8
# Band-Index    1
   0.00000    -12.949761
   0.02883    -12.949093
   0.05766    -12.947077
   0.08649    -12.943730
   0.11532    -12.939069
   0.14415    -12.933128
   0.17298    -12.925937
   0.20181    -12.917550
   0.23064    -12.908028
   0.25947    -12.897423
   0.28830    -12.885804
   0.31713    -12.873247
   0.34596    -12.859832
   0.37479    -12.845654
   0.40362    -12.830804
   0.43245    -12.815383
   0.46128    -12.799484
   0.49011    -12.783215
   0.51895    -12.766677
   0.54778    -12.749982
   0.57661    -12.733236
   0.60544    -12.716555
   0.63427    -12.700051
   0.66310    -12.683824
   0.69193    -12.667987
   0.72076    -12.652636
   0.74959    -12.637870
   0.77842    -12.623785
   0.80725    -12.610476
   0.83608    -12.598027
   0.86491    -12.586519
   0.89374    -12.576021
   0.92257    -12.566592
   0.95140    -12.558302
   0.98023    -12.551197
   1.00906    -12.545331
   1.03789    -12.540725
   1.06672    -12.537414
   1.09555    -12.535425
   1.12438    -12.534760
   1.12438    -12.534760
   1.13880    -12.534748
   1.15321    -12.534707
   1.16763    -12.534637
   1.18204    -12.534539
   1.19646    -12.534416
   1.21087    -12.534267
   1.22529    -12.534092
   1.23970    -12.533894
   1.25412    -12.533673
   1.26853    -12.533431
   1.28295    -12.533169
   1.29736    -12.532890
   1.31178    -12.532594
   1.32619    -12.532283
   1.34061    -12.531959
   1.35502    -12.531625
   1.36944    -12.531283
   1.38385    -12.530934
   1.39827    -12.530584
   1.41268    -12.530233
   1.42710    -12.529882
   1.44151    -12.529535
   1.45593    -12.529194
   1.47034    -12.528861
   1.48476    -12.528537
   1.49918    -12.528228
   1.51359    -12.527929
   1.52801    -12.527651
   1.54242    -12.527390
   1.55684    -12.527149
   1.57125    -12.526926
   1.58567    -12.526728
   1.60008    -12.526553
   1.61450    -12.526402
   1.62891    -12.526276
   1.64333    -12.526179
   1.65774    -12.526110
   1.67216    -12.526069
   1.68657    -12.526058
   1.68657    -12.526058
   1.69677    -12.526079
   1.70696    -12.526142
   1.71715    -12.526244
   1.72734    -12.526382
   1.73754    -12.526554
   1.74773    -12.526754
   1.75792    -12.526987
   1.76812    -12.527243
   1.77831    -12.527521
   1.78850    -12.527819
   1.79870    -12.528135
   1.80889    -12.528465
   1.81908    -12.528808
   1.82927    -12.529162
   1.83947    -12.529523
   1.84966    -12.529888
   1.85985    -12.530255
   1.87005    -12.530622
   1.88024    -12.530988
   1.89043    -12.531350
   1.90063    -12.531706
   1.91082    -12.532054
   1.92101    -12.532392
   1.93121    -12.532718
   1.94140    -12.533033
   1.95159    -12.533335
   1.96178    -12.533619
   1.97198    -12.533885
   1.98217    -12.534132
   1.99236    -12.534359
   2.00256    -12.534564
   2.01275    -12.534748
   2.02294    -12.534909
   2.03314    -12.535047
   2.04333    -12.535162
   2.05352    -12.535252
   2.06371    -12.535317
   2.07391    -12.535356
   2.08410    -12.535369
   2.08410    -12.535369
   2.11468    -12.537353
   2.14526    -12.539977
   2.17584    -12.543320
   2.20642    -12.547444
   2.23700    -12.552419
   2.26758    -12.558293
   2.29815    -12.565110
   2.32873    -12.572906
   2.35931    -12.581684
   2.38989    -12.591451
   2.42047    -12.602197
   2.45105    -12.613900
   2.48163    -12.626518
   2.51221    -12.640019
   2.54279    -12.654322
   2.57337    -12.669342
   2.60395    -12.684988
   2.63453    -12.701157
   2.66510    -12.717742
   2.69568    -12.734623
   2.72626    -12.751679
   2.75684    -12.768775
   2.78742    -12.785779
   2.81800    -12.802563
   2.84858    -12.818993
   2.87916    -12.834934
   2.90974    -12.850273
   2.94032    -12.864876
   2.97090    -12.878629
   3.00148    -12.891419
   3.03205    -12.903146
   3.06263    -12.913718
   3.09321    -12.923058
   3.12379    -12.931093
   3.15437    -12.937750
   3.18495    -12.942981
   3.21553    -12.946744
   3.24611    -12.949009
   3.27669    -12.949761
   3.27669    -12.949761
   3.30166    -12.949261
   3.32662    -12.947750
   3.35159    -12.945236
   3.37656    -12.941731
   3.40153    -12.937257
   3.42649    -12.931834
   3.45146    -12.925494
   3.47643    -12.918275
   3.50140    -12.910218
   3.52636    -12.901356
   3.55133    -12.891749
   3.57630    -12.881445
   3.60127    -12.870502
   3.62624    -12.858986
   3.65120    -12.846964
   3.67617    -12.834512
   3.70114    -12.821704
   3.72611    -12.808613
   3.75107    -12.795320
   3.77604    -12.781911
   3.80101    -12.768469
   3.82598    -12.755087
   3.85095    -12.741855
   3.87591    -12.728860
   3.90088    -12.716195
   3.92585    -12.703942
   3.95082    -12.692187
   3.97578    -12.681014
   4.00075    -12.670504
   4.02572    -12.660735
   4.05069    -12.651783
   4.07566    -12.643719
   4.10062    -12.636605
   4.12559    -12.630487
   4.15056    -12.625416
   4.17553    -12.621429
   4.20049    -12.618554
   4.22546    -12.616819
   4.25043    -12.616234
   4.25043    -12.616234
   4.26809    -12.616127
   4.28574    -12.615805
   4.30339    -12.615273
   4.32105    -12.614528
   4.33870    -12.613577
   4.35636    -12.612429
   4.37401    -12.611079
   4.39167    -12.609539
   4.40932    -12.607814
   4.42698    -12.605915
   4.44463    -12.603850
   4.46229    -12.601630
   4.47994    -12.599263
   4.49760    -12.596762
   4.51525    -12.594137
   4.53291    -12.591404
   4.55056    -12.588574
   4.56822    -12.585663
   4.58587    -12.582685
   4.60353    -12.579657
   4.62118    -12.576592
   4.63884    -12.573509
   4.65649    -12.570424
   4.67415    -12.567353
   4.69180    -12.564318
   4.70946    -12.561333
   4.72711    -12.558418
   4.74477    -12.555591
   4.76242    -12.552870
   4.78008    -12.550273
   4.79773    -12.547817
   4.81539    -12.545523
   4.83304    -12.543407
   4.85070    -12.541484
   4.86835    -12.539773
   4.88601    -12.538291
   4.90366    -12.537052
   4.92132    -12.536074
   4.93897    -12.535369
   4.93897    -12.535369
   4.94916    -12.535356
   4.95936    -12.535317
   4.96955    -12.535252
   4.97974    -12.535162
   4.98994    -12.535047
   5.00013    -12.534909
   5.01032    -12.534748
   5.02051    -12.534564
   5.03071    -12.534358
   5.04090    -12.534132
   5.05109    -12.533885
   5.06129    -12.533619
   5.07148    -12.533335
   5.08167    -12.533032
   5.09187    -12.532718
   5.10206    -12.532392
   5.11225    -12.532054
   5.12245    -12.531706
   5.13264    -12.531350
   5.14283    -12.530988
   5.15302    -12.530622
   5.16322    -12.530255
   5.17341    -12.529885
   5.18360    -12.529520
   5.19380    -12.529160
   5.20399    -12.528805
   5.21418    -12.528465
   5.22438    -12.528135
   5.23457    -12.527820
   5.24476    -12.527522
   5.25495    -12.527243
   5.26515    -12.526987
   5.27534    -12.526754
   5.28553    -12.526551
   5.29573    -12.526380
   5.30592    -12.526242
   5.31611    -12.526140
   5.32631    -12.526079
   5.33650    -12.526058
   5.33650    -12.526058
   5.35689    -12.526204
   5.37727    -12.526651
   5.39766    -12.527392
   5.41804    -12.528423
   5.43843    -12.529741
   5.45882    -12.531330
   5.47920    -12.533189
   5.49959    -12.535294
   5.51997    -12.537635
   5.54036    -12.540195
   5.56075    -12.542959
   5.58113    -12.545907
   5.60152    -12.549018
   5.62190    -12.552270
   5.64229    -12.555642
   5.66268    -12.559112
   5.68306    -12.562656
   5.70345    -12.566251
   5.72383    -12.569875
   5.74422    -12.573502
   5.76461    -12.577111
   5.78499    -12.580679
   5.80538    -12.584184
   5.82577    -12.587602
   5.84615    -12.590911
   5.86654    -12.594091
   5.88692    -12.597120
   5.90731    -12.599979
   5.92770    -12.602654
   5.94808    -12.605126
   5.96847    -12.607380
   5.98885    -12.609402
   6.00924    -12.611182
   6.02963    -12.612706
   6.05001    -12.613967
   6.07040    -12.614956
   6.09078    -12.615664
   6.11117    -12.616091
   6.13156    -12.616234
   6.13156    -12.616234
   6.14921    -12.616127
   6.16687    -12.615807
   6.18452    -12.615274
   6.20218    -12.614530
   6.21983    -12.613579
   6.23749    -12.612429
   6.25514    -12.611079
   6.27280    -12.609539
   6.29045    -12.607814
   6.30811    -12.605915
   6.32576    -12.603850
   6.34342    -12.601630
   6.36107    -12.599263
   6.37873    -12.596762
   6.39638    -12.594137
   6.41403    -12.591404
   6.43169    -12.588574
   6.44934    -12.585663
   6.46700    -12.582685
   6.48465    -12.579657
   6.50231    -12.576592
   6.51996    -12.573509
   6.53762    -12.570424
   6.55527    -12.567353
   6.57293    -12.564318
   6.59058    -12.561333
   6.60824    -12.558418
   6.62589    -12.555591
   6.64355    -12.552870
   6.66120    -12.550273
   6.67886    -12.547817
   6.69651    -12.545523
   6.71417    -12.543407
   6.73182    -12.541484
   6.74948    -12.539773
   6.76713    -12.538291
   6.78479    -12.537052
   6.80244    -12.536074
   6.82010    -12.535369
   6.82010    -12.535369
   6.83029    -12.534841
   6.84048    -12.534374
   6.85068    -12.533964
   6.86087    -12.533608
   6.87106    -12.533304
   6.88126    -12.533047
   6.89145    -12.532836
   6.90164    -12.532667
   6.91183    -12.532537
   6.92203    -12.532443
   6.93222    -12.532383
   6.94241    -12.532353
   6.95261    -12.532352
   6.96280    -12.532375
   6.97299    -12.532421
   6.98319    -12.532487
   6.99338    -12.532570
   7.00357    -12.532668
   7.01376    -12.532778
   7.02396    -12.532898
   7.03415    -12.533028
   7.04434    -12.533163
   7.05454    -12.533302
   7.06473    -12.533443
   7.07492    -12.533583
   7.08512    -12.533722
   7.09531    -12.533857
   7.10550    -12.533987
   7.11570    -12.534110
   7.12589    -12.534226
   7.13608    -12.534332
   7.14627    -12.534428
   7.15647    -12.534515
   7.16666    -12.534589
   7.17685    -12.534651
   7.18705    -12.534699
   7.19724    -12.534734
   7.20743    -12.534754
   7.21763    -12.534760
 
# Band-Index    2
   7.21763     -1.981754
   7.20743     -1.981569
   7.19724     -1.981013
   7.18705     -1.980086
   7.17685     -1.978750
   7.16666     -1.976997
   7.15647     -1.974963
   7.14627     -1.972057
   7.13608     -1.969294
   7.12589     -1.966163
   7.11570     -1.962666
   7.10550     -1.958806
   7.09531     -1.954558
   7.08512     -1.949972
   7.07492     -1.945027
   7.06473     -1.939723
   7.05454     -1.934063
   7.04434     -1.928048
   7.03415     -1.921681
   7.02396     -1.914963
   7.01376     -1.907899
   7.00357     -1.900489
   6.99338     -1.892737
   6.98319     -1.884646
   6.97299     -1.876218
   6.96280     -1.867718
   6.95261     -1.858631
   6.94241     -1.849216
   6.93222     -1.839479
   6.92203     -1.829422
   6.91183     -1.819049
   6.90164     -1.808364
   6.89145     -1.797372
   6.88126     -1.786076
   6.87106     -1.774481
   6.86087     -1.762591
   6.85068     -1.750412
   6.84048     -1.737947
   6.83029     -1.725202
   6.82010     -1.712182
   6.82010     -1.712182
   6.80244     -1.700375
   6.78479     -1.691502
   6.76713     -1.688413
   6.74948     -1.691518
   6.73182     -1.700637
   6.71417     -1.714804
   6.69651     -1.732717
   6.67886     -1.753231
   6.66120     -1.775535
   6.64355     -1.798793
   6.62589     -1.822619
   6.60824     -1.846680
   6.59058     -1.870732
   6.57293     -1.894592
   6.55527     -1.917889
   6.53762     -1.941502
   6.51996     -1.964064
   6.50231     -1.986005
   6.48465     -2.007257
   6.46700     -2.027761
   6.44934     -2.047465
   6.43169     -2.066325
   6.41403     -2.084444
   6.39638     -2.101475
   6.37873     -2.117569
   6.36107     -2.132674
   6.34342     -2.146765
   6.32576     -2.159166
   6.30811     -2.171158
   6.29045     -2.182067
   6.27280     -2.191963
   6.25514     -2.200655
   6.23749     -2.208214
   6.21983     -2.213819
   6.20218     -2.219086
   6.18452     -2.223190
   6.16687     -2.225852
   6.14921     -2.227510
   6.13156     -2.228100
   6.13156     -2.228100
   6.11117     -2.227314
   6.09078     -2.225068
   6.07040     -2.221757
   6.05001     -2.216294
   6.02963     -2.209287
   6.00924     -2.201282
   5.98885     -2.191222
   5.96847     -2.179691
   5.94808     -2.166578
   5.92770     -2.152150
   5.90731     -2.136318
   5.88692     -2.119234
   5.86654     -2.100710
   5.84615     -2.080902
   5.82577     -2.059856
   5.80538     -2.037627
   5.78499     -2.014247
   5.76461     -1.989516
   5.74422     -1.964105
   5.72383     -1.937770
   5.70345     -1.910592
   5.68306     -1.882869
   5.66268     -1.854290
   5.64229     -1.825161
   5.62190     -1.795603
   5.60152     -1.765842
   5.58113     -1.735668
   5.56075     -1.705726
   5.54036     -1.676028
   5.51997     -1.647131
   5.49959     -1.618730
   5.47920     -1.591470
   5.45882     -1.565174
   5.43843     -1.541741
   5.41804     -1.520344
   5.39766     -1.502865
   5.37727     -1.489715
   5.35689     -1.481463
   5.33650     -1.478626
   5.33650     -1.478626
   5.32631     -1.489448
   5.31611     -1.500266
   5.30592     -1.510865
   5.29573     -1.521238
   5.28553     -1.531382
   5.27534     -1.541289
   5.26515     -1.551399
   5.25495     -1.560826
   5.24476     -1.570002
   5.23457     -1.578922
   5.22438     -1.587582
   5.21418     -1.595977
   5.20399     -1.603769
   5.19380     -1.611797
   5.18360     -1.619379
   5.17341     -1.626680
   5.16322     -1.633697
   5.15302     -1.640425
   5.14283     -1.646862
   5.13264     -1.653004
   5.12245     -1.658862
   5.11225     -1.664406
   5.10206     -1.669647
   5.09187     -1.674582
   5.08167     -1.679210
   5.07148     -1.684446
   5.06129     -1.688455
   5.05109     -1.692149
   5.04090     -1.695527
   5.03071     -1.698588
   5.02051     -1.701329
   5.01032     -1.703750
   5.00013     -1.705849
   4.98994     -1.707626
   4.97974     -1.709529
   4.96955     -1.710665
   4.95936     -1.711532
   4.94916     -1.712020
   4.93897     -1.712182
   4.93897     -1.712182
   4.92132     -1.700375
   4.90366     -1.691502
   4.88601     -1.688414
   4.86835     -1.691518
   4.85070     -1.700638
   4.83304     -1.714805
   4.81539     -1.732718
   4.79773     -1.753231
   4.78008     -1.775535
   4.76242     -1.798793
   4.74477     -1.822619
   4.72711     -1.846680
   4.70946     -1.870732
   4.69180     -1.894592
   4.67415     -1.917889
   4.65649     -1.941502
   4.63884     -1.964064
   4.62118     -1.986005
   4.60353     -2.007257
   4.58587     -2.027761
   4.56822     -2.047465
   4.55056     -2.066325
   4.53291     -2.084444
   4.51525     -2.101475
   4.49760     -2.117569
   4.47994     -2.132674
   4.46229     -2.146765
   4.44463     -2.159166
   4.42698     -2.171158
   4.40932     -2.182067
   4.39167     -2.191963
   4.37401     -2.200655
   4.35636     -2.208214
   4.33870     -2.213817
   4.32105     -2.219084
   4.30339     -2.223188
   4.28574     -2.225850
   4.26809     -2.227510
   4.25043     -2.228100
   4.25043     -2.228100
   4.22546     -2.227184
   4.20049     -2.219582
   4.17553     -2.207045
   4.15056     -2.189310
   4.12559     -2.166594
   4.10062     -2.138980
   4.07566     -2.106565
   4.05069     -2.069470
   4.02572     -2.027828
   4.00075     -1.981794
   3.97578     -1.931534
   3.95082     -1.877011
   3.92585     -1.818883
   3.90088     -1.757147
   3.87591     -1.692196
   3.85095     -1.623999
   3.82598     -1.552987
   3.80101     -1.479465
   3.77604     -1.403085
   3.75107     -1.325607
   3.72611     -1.247295
   3.70114     -1.167383
   3.67617     -1.085169
   3.65120     -1.004516
   3.62624     -0.925543
   3.60127     -0.845136
   3.57630     -0.768623
   3.55133     -0.693516
   3.52636     -0.621317
   3.50140     -0.554354
   3.47643     -0.490256
   3.45146     -0.430343
   3.42649     -0.377274
   3.40153     -0.330830
   3.37656     -0.289543
   3.35159     -0.258483
   3.32662     -0.235894
   3.30166     -0.222174
   3.27669     -0.217573
   3.27669     -0.217573
   3.24611     -0.223943
   3.21553     -0.243513
   3.18495     -0.275493
   3.15437     -0.320555
   3.12379     -0.375349
   3.09321     -0.438117
   3.06263     -0.508078
   3.03205     -0.584302
   3.00148     -0.664256
   2.97090     -0.748081
   2.94032     -0.833247
   2.90974     -0.920772
   2.87916     -1.006502
   2.84858     -1.090668
   2.81800     -1.171439
   2.78742     -1.251449
   2.75684     -1.326038
   2.72626     -1.396022
   2.69568     -1.460847
   2.66510     -1.520032
   2.63453     -1.572856
   2.60395     -1.619630
   2.57337     -1.659717
   2.54279     -1.692889
   2.51221     -1.718979
   2.48163     -1.737820
   2.45105     -1.749513
   2.42047     -1.753942
   2.38989     -1.751209
   2.35931     -1.741447
   2.32873     -1.724850
   2.29815     -1.700379
   2.26758     -1.671024
   2.23700     -1.636030
   2.20642     -1.595140
   2.17584     -1.583113
   2.14526     -1.628153
   2.11468     -1.671524
   2.08410     -1.712182
   2.08410     -1.712182
   2.07391     -1.712019
   2.06371     -1.711532
   2.05352     -1.710664
   2.04333     -1.709529
   2.03314     -1.707626
   2.02294     -1.705849
   2.01275     -1.703750
   2.00256     -1.701329
   1.99236     -1.698587
   1.98217     -1.695527
   1.97198     -1.692149
   1.96178     -1.688455
   1.95159     -1.684446
   1.94140     -1.679209
   1.93121     -1.674582
   1.92101     -1.669647
   1.91082     -1.664406
   1.90063     -1.658862
   1.89043     -1.653003
   1.88024     -1.646861
   1.87005     -1.640425
   1.85985     -1.633696
   1.84966     -1.626680
   1.83947     -1.619379
   1.82927     -1.611797
   1.81908     -1.603769
   1.80889     -1.595969
   1.79870     -1.587574
   1.78850     -1.578914
   1.77831     -1.569994
   1.76812     -1.560818
   1.75792     -1.551391
   1.74773     -1.541281
   1.73754     -1.531381
   1.72734     -1.521238
   1.71715     -1.510864
   1.70696     -1.500265
   1.69677     -1.489448
   1.68657     -1.478626
   1.68657     -1.478626
   1.67216     -1.500584
   1.65774     -1.522524
   1.64333     -1.544203
   1.62891     -1.565594
   1.61450     -1.587004
   1.60008     -1.608207
   1.58567     -1.628585
   1.57125     -1.648568
   1.55684     -1.668134
   1.54242     -1.687259
   1.52801     -1.705921
   1.51359     -1.724100
   1.49918     -1.742464
   1.48476     -1.759086
   1.47034     -1.775716
   1.45593     -1.791790
   1.44151     -1.807290
   1.42710     -1.822202
   1.41268     -1.836511
   1.39827     -1.850203
   1.38385     -1.863267
   1.36944     -1.875779
   1.35502     -1.887548
   1.34061     -1.898655
   1.32619     -1.909114
   1.31178     -1.918866
   1.29736     -1.927927
   1.28295     -1.936290
   1.26853     -1.943948
   1.25412     -1.950920
   1.23970     -1.957149
   1.22529     -1.962655
   1.21087     -1.968283
   1.19646     -1.972341
   1.18204     -1.975665
   1.16763     -1.978332
   1.15321     -1.980271
   1.13880     -1.981383
   1.12438     -1.981754
   1.12438     -1.981754
   1.09555     -1.980102
   1.06672     -1.974323
   1.03789     -1.966085
   1.00906     -1.954500
   0.98023     -1.938095
   0.95140     -1.919784
   0.92257     -1.898016
   0.89374     -1.873997
   0.86491     -1.845290
   0.83608     -1.813031
   0.80725     -1.777779
   0.77842     -1.738379
   0.74959     -1.695397
   0.72076     -1.648858
   0.69193     -1.598484
   0.66310     -1.545022
   0.63427     -1.488234
   0.60544     -1.428252
   0.57661     -1.365247
   0.54778     -1.299432
   0.51895     -1.229899
   0.49011     -1.159323
   0.46128     -1.086780
   0.43245     -1.012879
   0.40362     -0.938014
   0.37479     -0.864227
   0.34596     -0.786784
   0.31713     -0.713415
   0.28830     -0.641238
   0.25947     -0.573000
   0.23064     -0.506972
   0.20181     -0.445773
   0.17298     -0.389722
   0.14415     -0.340116
   0.11532     -0.295760
