#K-Path(1/A) Energy-Level(eV)
# NKPTS & NBANDS: 400   8
# Band-Index    1
   0.00000    -12.130141
   0.02960    -12.127287
   0.05919    -12.118621
   0.08879    -12.104321
   0.11838    -12.084303
   0.14798    -12.058575
   0.17757    -12.027146
   0.20717    -11.990034
   0.23676    -11.947273
   0.26636    -11.898838
   0.29595    -11.844762
   0.32555    -11.785137
   0.35514    -11.719843
   0.38474    -11.648976
   0.41433    -11.572573
   0.44393    -11.490667
   0.47352    -11.403281
   0.50312    -11.310450
   0.53271    -11.212212
   0.56231    -11.108611
   0.59190    -10.999568
   0.62150    -10.885398
   0.65109    -10.766016
   0.68069    -10.641474
   0.71028    -10.511833
   0.73988    -10.377157
   0.76947    -10.237129
   0.79907    -10.092630
   0.82866     -9.943290
   0.85826     -9.789223
   0.88786     -9.630515
   0.91745     -9.467189
   0.94705     -9.299523
   0.97664     -9.127486
   1.00624     -8.951229
   1.03583     -8.770825
   1.06543     -8.586476
   1.09502     -8.398272
   1.12462     -8.206350
   1.15421     -8.010855
   1.15421     -8.010855
   1.16901     -8.010618
   1.18381     -8.009905
   1.19860     -8.008722
   1.21340     -8.007073
   1.22820     -8.004998
   1.24300     -8.002448
   1.25779     -7.999464
   1.27259     -7.996061
   1.28739     -7.992257
   1.30219     -7.988071
   1.31699     -7.983524
   1.33178     -7.978642
   1.34658     -7.973449
   1.36138     -7.968147
   1.37618     -7.962427
   1.39097     -7.956489
   1.40577     -7.950367
   1.42057     -7.944098
   1.43537     -7.937720
   1.45016     -7.931273
   1.46496     -7.924798
   1.47976     -7.918273
   1.49456     -7.911873
   1.50935     -7.905566
   1.52415     -7.899402
   1.53895     -7.893426
   1.55375     -7.887684
   1.56854     -7.882214
   1.58334     -7.876840
   1.59814     -7.872042
   1.61294     -7.867619
   1.62773     -7.863795
   1.64253     -7.860339
   1.65733     -7.857314
   1.67213     -7.854804
   1.68692     -7.852829
   1.70172     -7.851406
   1.71652     -7.850547
   1.73132     -7.850260
   1.73132     -7.850260
   1.74178     -7.879219
   1.75224     -7.907443
   1.76271     -7.934929
   1.77317     -7.961676
   1.78364     -7.987683
   1.79410     -8.012948
   1.80456     -8.037470
   1.81503     -8.061248
   1.82549     -8.084275
   1.83595     -8.106563
   1.84642     -8.128104
   1.85688     -8.148890
   1.86734     -8.168935
   1.87781     -8.188231
   1.88827     -8.206776
   1.89873     -8.224509
   1.90920     -8.241653
   1.91966     -8.257939
   1.93012     -8.273473
   1.94059     -8.288252
   1.95105     -8.302278
   1.96151     -8.315548
   1.97198     -8.328063
   1.98244     -8.339821
   1.99290     -8.350824
   2.00337     -8.361069
   2.01383     -8.370558
   2.02429     -8.379302
   2.03476     -8.387275
   2.04522     -8.394489
   2.05569     -8.401211
   2.06615     -8.406908
   2.07661     -8.411846
   2.08708     -8.416024
   2.09754     -8.419443
   2.10800     -8.422103
   2.11847     -8.424045
   2.12893     -8.425185
   2.13939     -8.425565
   2.13939     -8.425565
   2.17078     -8.516297
   2.20217     -8.617304
   2.23356     -8.727989
   2.26495     -8.847192
   2.29635     -8.973701
   2.32774     -9.106209
   2.35913     -9.243638
   2.39052     -9.384223
   2.42191     -9.527003
   2.45330     -9.670804
   2.48469     -9.814791
   2.51608     -9.957977
   2.54747    -10.099640
   2.57886    -10.239399
   2.61025    -10.376175
   2.64164    -10.509685
   2.67303    -10.639497
   2.70442    -10.765308
   2.73581    -10.886584
   2.76720    -11.003237
   2.79859    -11.114982
   2.82998    -11.221582
   2.86137    -11.322954
   2.89276    -11.418720
   2.92415    -11.508843
   2.95554    -11.593198
   2.98693    -11.671614
   3.01832    -11.744137
   3.04972    -11.810600
   3.08111    -11.870929
   3.11250    -11.925049
   3.14389    -11.972910
   3.17528    -12.014500
   3.20667    -12.049765
   3.23806    -12.078659
   3.26945    -12.101157
   3.30084    -12.117237
   3.33223    -12.126930
   3.36362    -12.130141
   3.36362    -12.130141
   3.38925    -12.128002
   3.41488    -12.121548
   3.44051    -12.110828
   3.46614    -12.095760
   3.49177    -12.076487
   3.51740    -12.052956
   3.54303    -12.025185
   3.56866    -11.993200
   3.59429    -11.957034
   3.61992    -11.916743
   3.64555    -11.872285
   3.67118    -11.823763
   3.69681    -11.771171
   3.72244    -11.714588
   3.74807    -11.654086
   3.77370    -11.589752
   3.79933    -11.521636
   3.82496    -11.449849
   3.85059    -11.374414
   3.87622    -11.295640
   3.90185    -11.213600
   3.92748    -11.128478
   3.95311    -11.040505
   3.97874    -10.949947
   4.00437    -10.857126
   4.03000    -10.762566
   4.05563    -10.666476
   4.08126    -10.569575
   4.10689    -10.472581
   4.13252    -10.376389
   4.15815    -10.282104
   4.18379    -10.191100
   4.20942    -10.105021
   4.23505    -10.025849
   4.26068     -9.955874
   4.28631     -9.897614
   4.31194     -9.853515
   4.33757     -9.825602
   4.36320     -9.816257
   4.36320     -9.816257
   4.38132     -9.815183
   4.39944     -9.811962
   4.41757     -9.806623
   4.43569     -9.799269
   4.45381     -9.789742
   4.47194     -9.777946
   4.49006     -9.764016
   4.50818     -9.747956
   4.52631     -9.729807
   4.54443     -9.709511
   4.56255     -9.687107
   4.58068     -9.662609
   4.59880     -9.636021
   4.61692     -9.607361
   4.63505     -9.576637
   4.65317     -9.543875
   4.67129     -9.509102
   4.68942     -9.472310
   4.70754     -9.433546
   4.72566     -9.392903
   4.74378     -9.350275
   4.76191     -9.305774
   4.78003     -9.259450
   4.79815     -9.211353
   4.81628     -9.161553
   4.83440     -9.110133
   4.85252     -9.057133
   4.87065     -9.002795
   4.88877     -8.947217
   4.90689     -8.890600
   4.92502     -8.833202
   4.94314     -8.775360
   4.96126     -8.717540
   4.97939     -8.660319
   4.99751     -8.604537
   5.01563     -8.551336
   5.03376     -8.502271
   5.05188     -8.459512
   5.07000     -8.425565
   5.07000     -8.425565
   5.08047     -8.425185
   5.09093     -8.424045
   5.10139     -8.422103
   5.11186     -8.419443
   5.12232     -8.416024
   5.13278     -8.411846
   5.14325     -8.406908
   5.15371     -8.401211
   5.16418     -8.394489
   5.17464     -8.387275
   5.18510     -8.379302
   5.19557     -8.370558
   5.20603     -8.361069
   5.21649     -8.350824
   5.22696     -8.339821
   5.23742     -8.328063
   5.24788     -8.315548
   5.25835     -8.302278
   5.26881     -8.288252
   5.27927     -8.273473
   5.28974     -8.257939
   5.30020     -8.241653
   5.31066     -8.224509
   5.32113     -8.206776
   5.33159     -8.188231
   5.34205     -8.168935
   5.35252     -8.148890
   5.36298     -8.128104
   5.37344     -8.106563
   5.38391     -8.084275
   5.39437     -8.061249
   5.40483     -8.037470
   5.41530     -8.012948
   5.42576     -7.987683
   5.43623     -7.961676
   5.44669     -7.934929
   5.45715     -7.907443
   5.46762     -7.879219
   5.47808     -7.850260
   5.47808     -7.850260
   5.49901     -7.933525
   5.51993     -8.017144
   5.54086     -8.100741
   5.56179     -8.183983
   5.58271     -8.266567
   5.60364     -8.348446
   5.62457     -8.428998
   5.64549     -8.508372
   5.66642     -8.586089
   5.68735     -8.662146
   5.70828     -8.736402
   5.72920     -8.808736
   5.75013     -8.879042
   5.77106     -8.947187
   5.79198     -9.013162
   5.81291     -9.076852
   5.83384     -9.138229
   5.85476     -9.197154
   5.87569     -9.253613
   5.89662     -9.307558
   5.91755     -9.358945
   5.93847     -9.407803
   5.95940     -9.453951
   5.98033     -9.497445
   6.00125     -9.538247
   6.02218     -9.576333
   6.04311     -9.611680
   6.06403     -9.644262
   6.08496     -9.674072
   6.10589     -9.701088
   6.12681     -9.725146
   6.14774     -9.746535
   6.16867     -9.765092
   6.18960     -9.780809
   6.21052     -9.793546
   6.23145     -9.803562
   6.25238     -9.810530
   6.27330     -9.814825
   6.29423     -9.816257
   6.29423     -9.816257
   6.31235     -9.815183
   6.33048     -9.811962
   6.34860     -9.806623
   6.36672     -9.799269
   6.38485     -9.789742
   6.40297     -9.777946
   6.42109     -9.764016
   6.43922     -9.747956
   6.45734     -9.729807
   6.47546     -9.709511
   6.49359     -9.687107
   6.51171     -9.662609
   6.52983     -9.636021
   6.54796     -9.607361
   6.56608     -9.576637
   6.58420     -9.543875
   6.60233     -9.509102
   6.62045     -9.472310
   6.63857     -9.433546
   6.65670     -9.392903
   6.67482     -9.350275
   6.69294     -9.305774
   6.71107     -9.259450
   6.72919     -9.211353
   6.74731     -9.161553
   6.76544     -9.110133
   6.78356     -9.057133
   6.80168     -9.002795
   6.81980     -8.947217
   6.83793     -8.890600
   6.85605     -8.833202
   6.87417     -8.775360
   6.89230     -8.717540
   6.91042     -8.660319
   6.92854     -8.604537
   6.94667     -8.551336
   6.96479     -8.502271
   6.98291     -8.459512
   7.00104     -8.425565
   7.00104     -8.425565
   7.01150     -8.397662
   7.02196     -8.370593
   7.03243     -8.345096
   7.04289     -8.320794
   7.05336     -8.297679
   7.06382     -8.275739
   7.07428     -8.254957
   7.08475     -8.235313
   7.09521     -8.216781
   7.10567     -8.199334
   7.11614     -8.182943
   7.12660     -8.167575
   7.13706     -8.153195
   7.14753     -8.139766
   7.15799     -8.127250
   7.16845     -8.115611
   7.17892     -8.104809
   7.18938     -8.094805
   7.19984     -8.085559
   7.21031     -8.077033
   7.22077     -8.069190
   7.23123     -8.061993
   7.24170     -8.055397
   7.25216     -8.049386
   7.26262     -8.043921
   7.27309     -8.038844
   7.28355     -8.034381
   7.29401     -8.030376
   7.30448     -8.026803
   7.31494     -8.023641
   7.32541     -8.020867
   7.33587     -8.018464
   7.34633     -8.016355
   7.35680     -8.014648
   7.36726     -8.013268
   7.37772     -8.012206
   7.38819     -8.011453
   7.39865     -8.011004
   7.40911     -8.010855
 
# Band-Index    2
   7.40911     -8.010854
   7.39865     -8.010468
   7.38819     -8.009306
   7.37772     -8.007369
   7.36726     -8.004658
   7.35680     -8.001172
   7.34633     -7.996912
   7.33587     -7.991879
   7.32541     -7.986070
   7.31494     -7.979487
   7.30448     -7.972130
   7.29401     -7.963999
   7.28355     -7.955095
   7.27309     -7.945417
   7.26262     -7.935015
   7.25216     -7.923792
   7.24170     -7.911796
   7.23123     -7.899032
   7.22077     -7.885492
   7.21031     -7.871180
   7.19984     -7.856097
   7.18938     -7.840242
   7.17892     -7.823617
   7.16845     -7.806222
   7.15799     -7.788056
   7.14753     -7.769121
   7.13706     -7.749417
   7.12660     -7.728944
   7.11614     -7.707704
   7.10567     -7.685697
   7.09521     -7.662923
   7.08475     -7.639383
   7.07428     -7.615077
   7.06382     -7.590006
   7.05336     -7.564170
   7.04289     -7.537571
   7.03243     -7.510207
   7.02196     -7.482081
   7.01150     -7.453230
   7.00104     -7.423581
   7.00104     -7.423581
   6.98291     -7.388948
   6.96479     -7.347192
   6.94667     -7.302042
   6.92854     -7.255817
   6.91042     -7.210541
   6.89230     -7.167679
   6.87417     -7.128231
   6.85605     -7.093200
   6.83793     -7.062918
   6.81980     -7.037597
   6.80168     -7.017236
   6.78356     -7.001690
   6.76544     -6.990717
   6.74731     -6.983755
   6.72919     -6.980477
   6.71107     -6.980424
   6.69294     -6.983097
   6.67482     -6.988137
   6.65670     -6.995081
   6.63857     -7.003571
   6.62045     -7.013199
   6.60233     -7.023682
   6.58420     -7.034716
   6.56608     -7.046076
   6.54796     -7.057550
   6.52983     -7.068836
   6.51171     -7.079916
   6.49359     -7.090502
   6.47546     -7.100612
   6.45734     -7.110058
   6.43922     -7.118734
   6.42109     -7.126587
   6.40297     -7.133518
   6.38485     -7.139478
   6.36672     -7.144373
   6.34860     -7.148191
   6.33048     -7.150968
   6.31235     -7.152649
   6.29423     -7.153211
   6.29423     -7.153211
   6.27330     -7.152462
   6.25238     -7.150223
   6.23145     -7.146583
   6.21052     -7.141436
   6.18960     -7.134958
   6.16867     -7.127119
   6.14774     -7.118055
   6.12681     -7.107852
   6.10589     -7.096734
   6.08496     -7.084791
   6.06403     -7.072122
   6.04311     -7.059005
   6.02218     -7.045675
   6.00125     -7.032414
   5.98033     -7.019544
   5.95940     -7.007429
   5.93847     -6.996594
   5.91755     -6.987204
   5.89662     -6.980051
   5.87569     -6.975610
   5.85476     -6.974474
   5.83384     -6.977265
   5.81291     -6.984555
   5.79198     -6.997038
   5.77106     -7.015197
   5.75013     -7.039687
   5.72920     -7.070298
   5.70828     -7.107536
   5.68735     -7.151284
   5.66642     -7.201333
   5.64549     -7.257452
   5.62457     -7.318787
   5.60364     -7.385122
   5.58271     -7.455661
   5.56179     -7.529933
   5.54086     -7.607060
   5.51993     -7.686530
   5.49901     -7.767771
   5.47808     -7.850258
   5.47808     -7.850258
   5.46762     -7.821541
   5.45715     -7.794045
   5.44669     -7.767775
   5.43623     -7.742730
   5.42576     -7.718901
   5.41530     -7.696279
   5.40483     -7.674847
   5.39437     -7.654584
   5.38391     -7.635336
   5.37344     -7.617343
   5.36298     -7.600440
   5.35252     -7.584499
   5.34205     -7.569673
   5.33159     -7.555829
   5.32113     -7.542928
   5.31066     -7.530913
   5.30020     -7.519873
   5.28974     -7.509565
   5.27927     -7.500039
   5.26881     -7.491257
   5.25835     -7.483180
   5.24788     -7.475770
   5.23742     -7.468990
   5.22696     -7.462805
   5.21649     -7.457070
   5.20603     -7.451980
   5.19557     -7.447390
   5.18510     -7.443287
   5.17464     -7.439617
   5.16418     -7.436369
   5.15371     -7.433721
   5.14325     -7.431251
   5.13278     -7.429148
   5.12232     -7.427395
   5.11186     -7.425977
   5.10139     -7.424886
   5.09093     -7.424197
   5.08047     -7.423734
   5.07000     -7.423581
   5.07000     -7.423581
   5.05188     -7.388948
   5.03376     -7.347192
   5.01563     -7.302042
   4.99751     -7.255817
   4.97939     -7.210541
   4.96126     -7.167679
   4.94314     -7.128231
   4.92502     -7.093200
   4.90689     -7.062918
   4.88877     -7.037597
   4.87065     -7.017236
   4.85252     -7.001690
   4.83440     -6.990717
   4.81628     -6.983755
   4.79815     -6.980477
   4.78003     -6.980424
   4.76191     -6.983097
   4.74378     -6.988137
   4.72566     -6.995081
   4.70754     -7.003571
   4.68942     -7.013199
   4.67129     -7.023682
   4.65317     -7.034716
   4.63505     -7.046076
   4.61692     -7.057550
   4.59880     -7.068836
   4.58068     -7.079916
   4.56255     -7.090502
   4.54443     -7.100612
   4.52631     -7.110058
   4.50818     -7.118734
   4.49006     -7.126587
   4.47194     -7.133518
   4.45381     -7.139478
   4.43569     -7.144373
   4.41757     -7.148191
   4.39944     -7.150968
   4.38132     -7.152649
   4.36320     -7.153211
   4.36320     -7.153211
   4.33757     -7.139829
   4.31194     -7.100342
   4.28631     -7.036164
   4.26068     -6.949606
   4.23505     -6.843277
   4.20942     -6.719673
   4.18379     -6.581201
   4.15815     -6.429843
   4.13252     -6.267298
   4.10689     -6.094966
   4.08126     -5.914007
   4.05563     -5.725377
   4.03000     -5.529874
   4.00437     -5.326957
   3.97874     -5.119560
   3.95311     -4.907039
   3.92748     -4.689727
   3.90185     -4.468235
   3.87622     -4.242847
   3.85059     -4.013936
   3.82496     -3.782031
   3.79933     -3.547235
   3.77370     -3.310101
   3.74807     -3.070919
   3.72244     -2.830064
   3.69681     -2.588888
   3.67118     -2.347630
   3.64555     -2.107132
   3.61992     -1.868461
   3.59429     -1.631519
   3.56866     -1.400851
   3.54303     -1.177306
   3.51740     -0.963863
   3.49177     -0.764513
   3.46614     -0.584554
   3.44051     -0.431058
   3.41488     -0.311738
   3.38925     -0.236213
   3.36362     -0.209910
   3.36362     -0.209910
   3.33223     -0.245004
   3.30084     -0.344156
   3.26945     -0.496699
   3.23806     -0.687358
   3.20667     -0.904027
   3.17528     -1.137676
   3.14389     -1.381924
   3.11250     -1.632635
   3.08111     -1.886111
   3.04972     -2.140601
   3.01832     -2.394047
   2.98693     -2.645528
   2.95554     -2.895565
   2.92415     -3.140602
   2.89276     -3.381585
   2.86137     -3.618069
   2.82998     -3.849679
   2.79859     -4.076233
   2.76720     -4.297437
   2.73581     -4.513133
   2.70442     -4.723291
   2.67303     -4.927267
   2.64164     -5.125378
   2.61025     -5.317406
   2.57886     -5.503258
   2.54747     -5.682842
   2.51608     -5.856549
   2.48469     -6.023568
   2.45330     -6.183969
   2.42191     -6.337936
   2.39052     -6.485262
   2.35913     -6.625984
   2.32774     -6.760033
   2.29635     -6.887435
   2.26495     -7.008121
   2.23356     -7.122061
   2.20217     -7.229174
   2.17078     -7.329866
   2.13939     -7.423581
   2.13939     -7.423581
   2.12893     -7.423734
   2.11847     -7.424197
   2.10800     -7.424886
   2.09754     -7.425977
   2.08708     -7.427395
   2.07661     -7.429148
   2.06615     -7.431251
   2.05569     -7.433721
   2.04522     -7.436369
   2.03476     -7.439617
   2.02429     -7.443287
   2.01383     -7.447390
   2.00337     -7.451980
   1.99290     -7.457070
   1.98244     -7.462805
   1.97198     -7.468990
   1.96151     -7.475770
   1.95105     -7.483180
   1.94059     -7.491257
   1.93012     -7.500039
   1.91966     -7.509565
   1.90920     -7.519873
   1.89873     -7.530913
   1.88827     -7.542928
   1.87781     -7.555829
   1.86734     -7.569673
   1.85688     -7.584499
   1.84642     -7.600440
   1.83595     -7.617343
   1.82549     -7.635336
   1.81503     -7.654584
   1.80456     -7.674847
   1.79410     -7.696279
   1.78364     -7.718901
   1.77317     -7.742730
   1.76271     -7.767775
   1.75224     -7.794045
   1.74178     -7.821541
   1.73132     -7.850258
   1.73132     -7.850258
   1.71652     -7.850545
   1.70172     -7.851404
   1.68692     -7.852827
   1.67213     -7.854802
   1.65733     -7.857312
   1.64253     -7.860337
   1.62773     -7.863793
   1.61294     -7.867617
   1.59814     -7.872040
   1.58334     -7.876838
   1.56854     -7.882213
   1.55375     -7.887682
   1.53895     -7.893425
   1.52415     -7.899400
   1.50935     -7.905564
   1.49456     -7.911871
   1.47976     -7.918272
   1.46496     -7.924796
   1.45016     -7.931271
   1.43537     -7.937719
   1.42057     -7.944097
   1.40577     -7.950366
   1.39097     -7.956488
   1.37618     -7.962426
   1.36138     -7.968146
   1.34658     -7.973447
   1.33178     -7.978640
   1.31699     -7.983523
   1.30219     -7.988070
   1.28739     -7.992256
   1.27259     -7.996060
   1.25779     -7.999463
   1.24300     -8.002447
   1.22820     -8.004996
   1.21340     -8.007072
   1.19860     -8.008721
   1.18381     -8.009904
   1.16901     -8.010617
   1.15421     -8.010854
   1.15421     -8.010854
   1.12462     -7.811937
   1.09502     -7.609770
   1.06543     -7.404504
   1.03583     -7.196306
   1.00624     -6.985365
   0.97664     -6.771830
   0.94705     -6.555901
   0.91745     -6.336992
   0.88786     -6.116999
   0.85826     -5.895058
   0.82866     -5.671492
   0.79907     -5.446495
   0.76947     -5.220193
   0.73988     -4.992907
   0.71028     -4.764774
   0.68069     -4.535988
   0.65109     -4.306727
   0.62150     -4.077183
   0.59190     -3.847550
   0.56231     -3.617997
   0.53271     -3.388811
   0.50312     -3.160195
   0.47352     -2.932404
   0.44393     -2.705739
   0.41433     -2.480562
   0.38474     -2.257328
   0.35514     -2.036022
   0.32555     -1.818447
   0.29595     -1.604396
   0.26636     -1.396155
   0.23676     -1.194684
   0.20717     -1.001518
   0.17757     -0.820204
   0.14798     -0.653611
   0.11838     -0.505956
